# tau(fm)  ecc_1  ecc_2  ecc_3  ecc_4  ecc_5  ecc_6
    6.00000000e-01  1.50596079e-04  1.35272124e-01  1.50596105e-04  1.43940004e-01  2.51104399e-04  5.37937809e-02  
    6.25000000e-01  1.50845941e-04  1.35151121e-01  1.50686783e-04  1.44055671e-01  2.50586923e-04  5.37545418e-02  
    6.50000000e-01  1.51082540e-04  1.35022980e-01  1.50713989e-04  1.44160702e-01  2.50023479e-04  5.37040539e-02  
    6.75000000e-01  1.51317087e-04  1.34887891e-01  1.50727507e-04  1.44254314e-01  2.49443202e-04  5.36449588e-02  
    7.00000000e-01  1.51546968e-04  1.34747119e-01  1.50738426e-04  1.44334292e-01  2.48844945e-04  5.35783106e-02  
    7.25000000e-01  1.51768921e-04  1.34601076e-01  1.50756115e-04  1.44398942e-01  2.48237174e-04  5.35045057e-02  
    7.50000000e-01  1.51980923e-04  1.34450208e-01  1.50786994e-04  1.44447959e-01  2.47612777e-04  5.34241708e-02  
    7.75000000e-01  1.52187529e-04  1.34294718e-01  1.50836463e-04  1.44482611e-01  2.46964989e-04  5.33388435e-02  
    8.00000000e-01  1.52384426e-04  1.34134631e-01  1.50907171e-04  1.44500961e-01  2.46275647e-04  5.32474668e-02  
    8.25000000e-01  1.52563983e-04  1.33969916e-01  1.50989595e-04  1.44502765e-01  2.45551152e-04  5.31499494e-02  
    8.50000000e-01  1.52721209e-04  1.33800463e-01  1.51071658e-04  1.44485945e-01  2.44832733e-04  5.30448470e-02  
    8.75000000e-01  1.52852922e-04  1.33626284e-01  1.51159707e-04  1.44452567e-01  2.44018725e-04  5.29334791e-02  
    9.00000000e-01  1.52961210e-04  1.33447328e-01  1.51248915e-04  1.44402580e-01  2.43149382e-04  5.28158800e-02  
    9.25000000e-01  1.53043331e-04  1.33263511e-01  1.51338906e-04  1.44335803e-01  2.42150971e-04  5.26920893e-02  
    9.50000000e-01  1.53101836e-04  1.33074783e-01  1.51420279e-04  1.44252417e-01  2.41197404e-04  5.25619372e-02  
    9.75000000e-01  1.53135071e-04  1.32881080e-01  1.51489773e-04  1.44152546e-01  2.40215676e-04  5.24254963e-02  
    1.00000000e+00  1.53141689e-04  1.32682306e-01  1.51547768e-04  1.44036189e-01  2.39206715e-04  5.22826839e-02  
    1.02500000e+00  1.53122184e-04  1.32478422e-01  1.51592873e-04  1.43903336e-01  2.38173907e-04  5.21334409e-02  
    1.05000000e+00  1.53076944e-04  1.32269353e-01  1.51627655e-04  1.43754023e-01  2.37114323e-04  5.19778093e-02  
    1.07500000e+00  1.53004039e-04  1.32055076e-01  1.51647452e-04  1.43588241e-01  2.36032994e-04  5.18157247e-02  
    1.10000000e+00  1.52904676e-04  1.31835553e-01  1.51648895e-04  1.43406212e-01  2.34963053e-04  5.16472358e-02  
    1.12500000e+00  1.52778304e-04  1.31610744e-01  1.51634607e-04  1.43208131e-01  2.33853823e-04  5.14724830e-02  
    1.15000000e+00  1.52627006e-04  1.31380612e-01  1.51610034e-04  1.42994192e-01  2.32719179e-04  5.12913939e-02  
    1.17500000e+00  1.52451839e-04  1.31145141e-01  1.51576498e-04  1.42764617e-01  2.31559552e-04  5.11041249e-02  
    1.20000000e+00  1.52250919e-04  1.30904318e-01  1.51528887e-04  1.42519604e-01  2.30341922e-04  5.09108698e-02  
    1.22500000e+00  1.52024538e-04  1.30658133e-01  1.51467501e-04  1.42259362e-01  2.29108577e-04  5.07115943e-02  
    1.25000000e+00  1.51774171e-04  1.30406622e-01  1.51394210e-04  1.41984104e-01  2.27843446e-04  5.05064568e-02  
    1.27500000e+00  1.51500497e-04  1.30149803e-01  1.51308646e-04  1.41694024e-01  2.26528135e-04  5.02955090e-02  
    1.30000000e+00  1.51208761e-04  1.29887705e-01  1.51213284e-04  1.41389308e-01  2.25209404e-04  5.00787524e-02  
    1.32500000e+00  1.50888074e-04  1.29620350e-01  1.51105176e-04  1.41070282e-01  2.23882446e-04  4.98562908e-02  
    1.35000000e+00  1.50545740e-04  1.29347795e-01  1.50983195e-04  1.40737226e-01  2.22530992e-04  4.96283539e-02  
    1.37500000e+00  1.50188149e-04  1.29070076e-01  1.50851377e-04  1.40390486e-01  2.21176926e-04  4.93950913e-02  
    1.40000000e+00  1.49804841e-04  1.28787208e-01  1.50705070e-04  1.40030337e-01  2.19723353e-04  4.91567222e-02  
    1.42500000e+00  1.49393362e-04  1.28499233e-01  1.50555080e-04  1.39656990e-01  2.18282642e-04  4.89133459e-02  
    1.45000000e+00  1.48962401e-04  1.28206204e-01  1.50399018e-04  1.39270690e-01  2.16811737e-04  4.86650966e-02  
    1.47500000e+00  1.48507212e-04  1.27908178e-01  1.50236047e-04  1.38871548e-01  2.15315078e-04  4.84120152e-02  
    1.50000000e+00  1.48040979e-04  1.27605216e-01  1.50061157e-04  1.38459818e-01  2.13768612e-04  4.81543045e-02  
    1.52500000e+00  1.47553235e-04  1.27297377e-01  1.49886082e-04  1.38035774e-01  2.12209508e-04  4.78921422e-02  
    1.55000000e+00  1.47050834e-04  1.26984723e-01  1.49704994e-04  1.37599675e-01  2.10635769e-04  4.76256418e-02  
    1.57500000e+00  1.46537577e-04  1.26667297e-01  1.49517134e-04  1.37151899e-01  2.09067440e-04  4.73550710e-02  
    1.60000000e+00  1.46006131e-04  1.26345163e-01  1.49318961e-04  1.36692738e-01  2.07526425e-04  4.70805602e-02  
    1.62500000e+00  1.45464565e-04  1.26018388e-01  1.49111927e-04  1.36222512e-01  2.05973327e-04  4.68023315e-02  
    1.65000000e+00  1.44901701e-04  1.25687051e-01  1.48893878e-04  1.35741435e-01  2.04374019e-04  4.65204858e-02  
    1.67500000e+00  1.44307405e-04  1.25351240e-01  1.48662666e-04  1.35249694e-01  2.02711988e-04  4.62351630e-02  
    1.70000000e+00  1.43687513e-04  1.25011052e-01  1.48405704e-04  1.34747482e-01  2.00987438e-04  4.59464747e-02  
    1.72500000e+00  1.43046091e-04  1.24666604e-01  1.48128267e-04  1.34235067e-01  1.99215465e-04  4.56545351e-02  
    1.75000000e+00  1.42377884e-04  1.24317988e-01  1.47825330e-04  1.33712728e-01  1.97416325e-04  4.53594559e-02  
    1.77500000e+00  1.41686732e-04  1.23965276e-01  1.47497378e-04  1.33180733e-01  1.95584499e-04  4.50613462e-02  
    1.80000000e+00  1.40982707e-04  1.23608553e-01  1.47148480e-04  1.32639357e-01  1.93809220e-04  4.47604831e-02  
    1.82500000e+00  1.40264442e-04  1.23247889e-01  1.46778216e-04  1.32088885e-01  1.92081801e-04  4.44570738e-02  
    1.85000000e+00  1.39538820e-04  1.22883354e-01  1.46391260e-04  1.31529548e-01  1.90353883e-04  4.41510739e-02  
    1.87500000e+00  1.38788810e-04  1.22515027e-01  1.45980709e-04  1.30961557e-01  1.88559839e-04  4.38425677e-02  
    1.90000000e+00  1.38022781e-04  1.22143008e-01  1.45549718e-04  1.30385148e-01  1.86755254e-04  4.35318915e-02  
    1.92500000e+00  1.37237449e-04  1.21767388e-01  1.45102033e-04  1.29800546e-01  1.84917268e-04  4.32190034e-02  
    1.95000000e+00  1.36424608e-04  1.21388267e-01  1.44638858e-04  1.29207976e-01  1.83044037e-04  4.29039629e-02  
    1.97500000e+00  1.35613432e-04  1.21005745e-01  1.44170543e-04  1.28607664e-01  1.81245212e-04  4.25868958e-02  
    2.00000000e+00  1.34775621e-04  1.20619941e-01  1.43674637e-04  1.27999799e-01  1.79441572e-04  4.22678756e-02  
    2.02500000e+00  1.33924369e-04  1.20230960e-01  1.43181610e-04  1.27384537e-01  1.77639406e-04  4.19469604e-02  
    2.05000000e+00  1.33083984e-04  1.19838888e-01  1.42673125e-04  1.26762084e-01  1.75838615e-04  4.16242329e-02  
    2.07500000e+00  1.32224969e-04  1.19443819e-01  1.42184571e-04  1.26132668e-01  1.74081963e-04  4.12998454e-02  
    2.10000000e+00  1.31357525e-04  1.19045834e-01  1.41690982e-04  1.25496491e-01  1.72303290e-04  4.09738488e-02  
    2.12500000e+00  1.30482611e-04  1.18645021e-01  1.41218508e-04  1.24853750e-01  1.70524602e-04  4.06466021e-02  
    2.15000000e+00  1.29606855e-04  1.18241469e-01  1.40745178e-04  1.24204653e-01  1.68748351e-04  4.03180627e-02  
    2.17500000e+00  1.28725398e-04  1.17835266e-01  1.40272170e-04  1.23549305e-01  1.66897732e-04  3.99885294e-02  
    2.20000000e+00  1.27842087e-04  1.17426486e-01  1.39807106e-04  1.22887889e-01  1.65065244e-04  3.96581186e-02  
    2.22500000e+00  1.26955332e-04  1.17015192e-01  1.39340614e-04  1.22220705e-01  1.63243266e-04  3.93268612e-02  
    2.25000000e+00  1.26081986e-04  1.16601418e-01  1.38912931e-04  1.21548134e-01  1.61479551e-04  3.89947222e-02  
    2.27500000e+00  1.25177416e-04  1.16185310e-01  1.38449698e-04  1.20870430e-01  1.59773333e-04  3.86621599e-02  
    2.30000000e+00  1.24279415e-04  1.15766946e-01  1.38019786e-04  1.20187693e-01  1.58011438e-04  3.83290885e-02  
    2.32500000e+00  1.23359299e-04  1.15346411e-01  1.37597123e-04  1.19500029e-01  1.56203187e-04  3.79958151e-02  
    2.35000000e+00  1.22442409e-04  1.14923768e-01  1.37185323e-04  1.18807744e-01  1.54437091e-04  3.76626335e-02  
    2.37500000e+00  1.21488771e-04  1.14499106e-01  1.36723859e-04  1.18111294e-01  1.52752440e-04  3.73295860e-02  
    2.40000000e+00  1.20526937e-04  1.14072574e-01  1.36236839e-04  1.17411042e-01  1.51135655e-04  3.69963489e-02  
    2.42500000e+00  1.19573004e-04  1.13644227e-01  1.35785640e-04  1.16706987e-01  1.49389582e-04  3.66629098e-02  
    2.45000000e+00  1.18626385e-04  1.13214129e-01  1.35302000e-04  1.15998381e-01  1.47627130e-04  3.63291267e-02  
    2.47500000e+00  1.17677144e-04  1.12782329e-01  1.34824832e-04  1.15285819e-01  1.45859889e-04  3.59951749e-02  
    2.50000000e+00  1.16704723e-04  1.12348897e-01  1.34350306e-04  1.14569792e-01  1.44235675e-04  3.56614720e-02  
    2.52500000e+00  1.15752496e-04  1.11913988e-01  1.33903267e-04  1.13850632e-01  1.42604150e-04  3.53282942e-02  
    2.55000000e+00  1.14813083e-04  1.11477666e-01  1.33445304e-04  1.13128418e-01  1.41002719e-04  3.49952498e-02  
    2.57500000e+00  1.13867445e-04  1.11040013e-01  1.32962454e-04  1.12403326e-01  1.39436102e-04  3.46624881e-02  
    2.60000000e+00  1.12895962e-04  1.10601134e-01  1.32493380e-04  1.11675414e-01  1.37905167e-04  3.43297343e-02  
    2.62500000e+00  1.11932965e-04  1.10161003e-01  1.32027238e-04  1.10944726e-01  1.36315347e-04  3.39973839e-02  
    2.65000000e+00  1.10950270e-04  1.09719572e-01  1.31517195e-04  1.10210666e-01  1.34640293e-04  3.36658375e-02  
    2.67500000e+00  1.09957638e-04  1.09277137e-01  1.31034676e-04  1.09473583e-01  1.33003094e-04  3.33346400e-02  
    2.70000000e+00  1.08978897e-04  1.08833820e-01  1.30563483e-04  1.08733877e-01  1.31382222e-04  3.30038316e-02  
    2.72500000e+00  1.08014310e-04  1.08389632e-01  1.30059859e-04  1.07992098e-01  1.29848696e-04  3.26739655e-02  
    2.75000000e+00  1.07068360e-04  1.07944602e-01  1.29619788e-04  1.07248439e-01  1.28219999e-04  3.23445506e-02  
    2.77500000e+00  1.06090700e-04  1.07498751e-01  1.29140663e-04  1.06503075e-01  1.26680669e-04  3.20159046e-02  
    2.80000000e+00  1.05120859e-04  1.07052153e-01  1.28694623e-04  1.05756136e-01  1.25169495e-04  3.16878193e-02  
    2.82500000e+00  1.04163083e-04  1.06604739e-01  1.28241451e-04  1.05007407e-01  1.23521736e-04  3.13612141e-02  
    2.85000000e+00  1.03206161e-04  1.06156602e-01  1.27795216e-04  1.04256703e-01  1.21896961e-04  3.10358705e-02  
    2.87500000e+00  1.02223877e-04  1.05707911e-01  1.27301272e-04  1.03504505e-01  1.20345904e-04  3.07115435e-02  
    2.90000000e+00  1.01217932e-04  1.05258723e-01  1.26790886e-04  1.02751374e-01  1.18876195e-04  3.03884071e-02  
    2.92500000e+00  1.00211193e-04  1.04809078e-01  1.26282190e-04  1.01997422e-01  1.17378998e-04  3.00660936e-02  
    2.95000000e+00  9.91834020e-05  1.04359041e-01  1.25708841e-04  1.01242842e-01  1.16037412e-04  2.97449197e-02  
    2.97500000e+00  9.81537461e-05  1.03908668e-01  1.25090428e-04  1.00487858e-01  1.14764837e-04  2.94254210e-02  
    3.00000000e+00  9.71266882e-05  1.03458003e-01  1.24477607e-04  9.97326176e-02  1.13500459e-04  2.91074115e-02  
    3.02500000e+00  9.60690745e-05  1.03006960e-01  1.23826069e-04  9.89765634e-02  1.12103894e-04  2.87912654e-02  
    3.05000000e+00  9.50451764e-05  1.02555635e-01  1.23245194e-04  9.82196080e-02  1.10606729e-04  2.84766216e-02  
    3.07500000e+00  9.40334127e-05  1.02104210e-01  1.22704419e-04  9.74621501e-02  1.08982892e-04  2.81631015e-02  
    3.10000000e+00  9.30396579e-05  1.01652828e-01  1.22178410e-04  9.67046845e-02  1.07391980e-04  2.78508074e-02  
    3.12500000e+00  9.20568718e-05  1.01201550e-01  1.21632690e-04  9.59472177e-02  1.06028097e-04  2.75397794e-02  
    3.15000000e+00  9.10982434e-05  1.00750458e-01  1.21130202e-04  9.51901124e-02  1.04658123e-04  2.72303387e-02  
    3.17500000e+00  9.01358657e-05  1.00299599e-01  1.20641528e-04  9.44332782e-02  1.03353125e-04  2.69221977e-02  
    3.20000000e+00  8.91627878e-05  9.98489446e-02  1.20153556e-04  9.36765625e-02  1.01958353e-04  2.66150715e-02  
    3.22500000e+00  8.82011171e-05  9.93984676e-02  1.19654121e-04  9.29196831e-02  1.00578613e-04  2.63089190e-02  
    3.25000000e+00  8.72608807e-05  9.89482272e-02  1.19165365e-04  9.21629290e-02  9.92473325e-05  2.60042246e-02  
    3.27500000e+00  8.63444463e-05  9.84982364e-02  1.18685512e-04  9.14066319e-02  9.79447607e-05  2.57012877e-02  
    3.30000000e+00  8.54253614e-05  9.80485268e-02  1.18217408e-04  9.06509699e-02  9.68418115e-05  2.54004280e-02  
    3.32500000e+00  8.45006742e-05  9.75991105e-02  1.17741205e-04  8.98961994e-02  9.56104858e-05  2.51019173e-02  
    3.35000000e+00  8.35444364e-05  9.71500430e-02  1.17279184e-04  8.91423447e-02  9.44646284e-05  2.48048779e-02  
    3.37500000e+00  8.25738611e-05  9.67012292e-02  1.16758708e-04  8.83889311e-02  9.32478650e-05  2.45094660e-02  
    3.40000000e+00  8.16292751e-05  9.62527693e-02  1.16226747e-04  8.76361096e-02  9.20822401e-05  2.42158249e-02  
    3.42500000e+00  8.06897517e-05  9.58047771e-02  1.15697797e-04  8.68842080e-02  9.09295329e-05  2.39242006e-02  
    3.45000000e+00  7.97364126e-05  9.53573877e-02  1.15169950e-04  8.61335411e-02  8.97901559e-05  2.36345986e-02  
    3.47500000e+00  7.87739481e-05  9.49106255e-02  1.14633316e-04  8.53841762e-02  8.85127916e-05  2.33470467e-02  
    3.50000000e+00  7.78333977e-05  9.44645075e-02  1.14076359e-04  8.46363400e-02  8.71661847e-05  2.30611470e-02  
    3.52500000e+00  7.68896406e-05  9.40191275e-02  1.13514072e-04  8.38897329e-02  8.59793662e-05  2.27763807e-02  
    3.55000000e+00  7.59477297e-05  9.35744462e-02  1.12914954e-04  8.31440743e-02  8.48352266e-05  2.24930085e-02  
    3.57500000e+00  7.50210046e-05  9.31304715e-02  1.12316659e-04  8.23996680e-02  8.36427701e-05  2.22114397e-02  
    3.60000000e+00  7.40963333e-05  9.26872759e-02  1.11764225e-04  8.16567990e-02  8.25489404e-05  2.19321079e-02  
    3.62500000e+00  7.31627648e-05  9.22448447e-02  1.11210664e-04  8.09156228e-02  8.13708730e-05  2.16551222e-02  
    3.65000000e+00  7.22767989e-05  9.18031938e-02  1.10684619e-04  8.01763479e-02  8.02642541e-05  2.13798977e-02  
    3.67500000e+00  7.13787318e-05  9.13623917e-02  1.10126717e-04  7.94387200e-02  7.90821382e-05  2.11062206e-02  
    3.70000000e+00  7.04831954e-05  9.09224036e-02  1.09533040e-04  7.87023325e-02  7.78892598e-05  2.08342602e-02  
    3.72500000e+00  6.95702289e-05  9.04832180e-02  1.08901972e-04  7.79674235e-02  7.68344823e-05  2.05644193e-02  
    3.75000000e+00  6.86593324e-05  9.00448944e-02  1.08325028e-04  7.72343854e-02  7.57680237e-05  2.02967295e-02  
    3.77500000e+00  6.77235544e-05  8.96075099e-02  1.07696961e-04  7.65033255e-02  7.47670116e-05  2.00311432e-02  
    3.80000000e+00  6.68220818e-05  8.91710217e-02  1.07108797e-04  7.57745985e-02  7.36322966e-05  1.97677909e-02  
    3.82500000e+00  6.59104625e-05  8.87356296e-02  1.06477226e-04  7.50481596e-02  7.25795664e-05  1.95057788e-02  
    3.85000000e+00  6.50046820e-05  8.83011925e-02  1.05831956e-04  7.43231668e-02  7.14998469e-05  1.92455470e-02  
    3.87500000e+00  6.41023502e-05  8.78677260e-02  1.05169251e-04  7.35997468e-02  7.04725207e-05  1.89871282e-02  
    3.90000000e+00  6.32085120e-05  8.74352422e-02  1.04580344e-04  7.28783898e-02  6.94986413e-05  1.87306136e-02  
    3.92500000e+00  6.23210930e-05  8.70037888e-02  1.03982841e-04  7.21594619e-02  6.83847167e-05  1.84762625e-02  
    3.95000000e+00  6.14806956e-05  8.65733668e-02  1.03402209e-04  7.14431081e-02  6.73775095e-05  1.82241828e-02  
    3.97500000e+00  6.06354969e-05  8.61440716e-02  1.02796925e-04  7.07295445e-02  6.63173232e-05  1.79739622e-02  
    4.00000000e+00  5.97548890e-05  8.57158403e-02  1.02104050e-04  7.00178509e-02  6.54255907e-05  1.77255448e-02  
    4.02500000e+00  5.88923077e-05  8.52886246e-02  1.01417217e-04  6.93076607e-02  6.45294882e-05  1.74788787e-02  
    4.05000000e+00  5.80167378e-05  8.48624743e-02  1.00789718e-04  6.85996288e-02  6.35598942e-05  1.72339896e-02  
    4.07500000e+00  5.71748543e-05  8.44374265e-02  1.00171260e-04  6.78940700e-02  6.26038315e-05  1.69915531e-02  
    4.10000000e+00  5.63776862e-05  8.40135203e-02  9.95816789e-05  6.71912953e-02  6.17024005e-05  1.67513760e-02  
    4.12500000e+00  5.55641358e-05  8.35908306e-02  9.89571156e-05  6.64916344e-02  6.07243341e-05  1.65133096e-02  
    4.15000000e+00  5.47196520e-05  8.31693616e-02  9.82609860e-05  6.57940543e-02  5.98725261e-05  1.62768338e-02  
    4.17500000e+00  5.38954753e-05  8.27490130e-02  9.76116371e-05  6.50980998e-02  5.90943904e-05  1.60418425e-02  
    4.20000000e+00  5.30471814e-05  8.23297777e-02  9.69833554e-05  6.44043959e-02  5.81184925e-05  1.58086006e-02  
    4.22500000e+00  5.22520931e-05  8.19117275e-02  9.63706805e-05  6.37133148e-02  5.69725327e-05  1.55778022e-02  
    4.25000000e+00  5.14677804e-05  8.14949428e-02  9.57920021e-05  6.30252681e-02  5.58180085e-05  1.53490579e-02  
    4.27500000e+00  5.06757287e-05  8.10793911e-02  9.51877797e-05  6.23405955e-02  5.49064899e-05  1.51225156e-02  
    4.30000000e+00  4.98298914e-05  8.06651189e-02  9.45206304e-05  6.16580949e-02  5.41350311e-05  1.48975654e-02  
    4.32500000e+00  4.89794218e-05  8.02520565e-02  9.38432044e-05  6.09774066e-02  5.34332104e-05  1.46740336e-02  
    4.35000000e+00  4.81432915e-05  7.98401577e-02  9.31823666e-05  6.02990028e-02  5.25319411e-05  1.44523790e-02  
    4.37500000e+00  4.73618436e-05  7.94295061e-02  9.25473585e-05  5.96233758e-02  5.15903687e-05  1.42329495e-02  
    4.40000000e+00  4.66188942e-05  7.90201249e-02  9.19734546e-05  5.89508780e-02  5.06745997e-05  1.40154393e-02  
    4.42500000e+00  4.58589656e-05  7.86120497e-02  9.13578624e-05  5.82817630e-02  4.98138277e-05  1.37999257e-02  
    4.45000000e+00  4.50474971e-05  7.82051748e-02  9.06410068e-05  5.76150018e-02  4.90481195e-05  1.35864819e-02  
    4.47500000e+00  4.42360585e-05  7.77995746e-02  8.99584092e-05  5.69500246e-02  4.82417355e-05  1.33743486e-02  
    4.50000000e+00  4.34384669e-05  7.73951831e-02  8.92983077e-05  5.62874496e-02  4.73597556e-05  1.31643555e-02  
    4.52500000e+00  4.26843643e-05  7.69920576e-02  8.86728125e-05  5.56277396e-02  4.64473184e-05  1.29564066e-02  
    4.55000000e+00  4.19755727e-05  7.65902319e-02  8.81176870e-05  5.49713479e-02  4.54680354e-05  1.27502968e-02  
    4.57500000e+00  4.12413534e-05  7.61896996e-02  8.75390434e-05  5.43184240e-02  4.44667522e-05  1.25462663e-02  
    4.60000000e+00  4.04321842e-05  7.57904270e-02  8.68500774e-05  5.36676985e-02  4.36883308e-05  1.23440343e-02  
    4.62500000e+00  3.96580350e-05  7.53924066e-02  8.61357378e-05  5.30189645e-02  4.28626675e-05  1.21432980e-02  
    4.65000000e+00  3.88984893e-05  7.49956644e-02  8.55125266e-05  5.23727115e-02  4.19372590e-05  1.19447080e-02  
    4.67500000e+00  3.81892012e-05  7.46002013e-02  8.49313623e-05  5.17293678e-02  4.09734619e-05  1.17479829e-02  
    4.70000000e+00  3.74750033e-05  7.42060813e-02  8.43373211e-05  5.10894863e-02  4.02076476e-05  1.15528453e-02  
    4.72500000e+00  3.67495936e-05  7.38132796e-02  8.37462361e-05  5.04529753e-02  3.94499081e-05  1.13596470e-02  
    4.75000000e+00  3.59478126e-05  7.34217287e-02  8.30019407e-05  4.98185217e-02  3.88609915e-05  1.11681794e-02  
    4.77500000e+00  3.52003869e-05  7.30314386e-02  8.23071627e-05  4.91861961e-02  3.80828654e-05  1.09783507e-02  
    4.80000000e+00  3.44898678e-05  7.26424087e-02  8.16570595e-05  4.85564538e-02  3.71788248e-05  1.07906757e-02  
    4.82500000e+00  3.38230990e-05  7.22546909e-02  8.10695987e-05  4.79298509e-02  3.62570591e-05  1.06047701e-02  
